X	Y	theta	abscissa	curvature	width_L	width_R	elevation	banking	slope	upsilon	torsion
0.105488376390737	0.153556067992307	-0.00933205812302235	0	-0.000647198111844289	7.31084315502516	7.49575266663609	0	0	0	0	0
5.10623741476033	0.100227735504445	-0.0117085478034241	5.00103456591948	-0.000432986204844647	7.36165335929229	7.44203684449907	0	0	0	0	0
10.1068590628199	0.0360707678921708	-0.0139874985444059	10.0020688399309	-0.000478500807439287	7.42147830005029	7.3789410618966	0	0	0	0	0
15.1073130327721	-0.040027567555792	-0.016479835521868	15.003103113971	-0.0005185388038489	7.49115429104268	7.3064296693052	0	0	0	0	0
20.1075534386223	-0.129049168905015	-0.0191484645983873	20.0041373875344	-0.00054899704067286	7.57145307592232	7.22316020735401	0	0	0	0	0
25.1075317513641	-0.231735601407081	-0.0219337608977794	25.0051716606076	-0.00056512092701166	7.66301330231608	7.1267255659248	0	0	0	0	0
30.1072016983095	-0.348473101319235	-0.0247537822275694	30.0062059333236	-0.000562721336909118	7.76617462888143	7.01635432655936	0	0	0	0	0
35.1065256773039	-0.479193088546226	-0.0275100697328566	35.007240205987	-0.000539397659807214	7.88078875613787	6.89439819346358	0	0	0	0	0
40.1054813725544	-0.623317264412892	-0.0300997050859255	40.0082744789965	-0.000495821196710847	8.00606600344687	6.76374431556148	0	0	0	0	0
45.1040664583899	-0.779776848990243	-0.03243245535544	45.0093087526797	-0.000436467333324818	8.14051291583665	6.62767522185322	0	0	0	0	0
50.1022992194759	-0.947122599079152	-0.0344491404627701	50.0103430271434	-0.00036935713361839	8.28200054920893	6.49092745265654	0	0	0	0	0
55.1002139636185	-1.1237184607698	-0.0361357795445112	55.0113773022391	-0.000304568461847483	8.4279662023299	6.35646460011974	0	0	0	0	0
60.0978520061467	-1.30798396496553	-0.037528334492356	60.0124115776887	-0.00025196988633869	8.57570852518196	6.22871687535107	0	0	0	0	0
65.0952507608586	-1.4986318597654	-0.0387060810541616	65.0134458532452	-0.000218951532130861	8.72270334525175	6.11079094191748	0	0	0	0	0
70.0924340565127	-1.69484743154052	-0.0397755664578227	70.0144801287689	-0.000208941315778283	8.86687525750855	6.00238330801739	0	0	0	0	0
75.0894059745049	-1.89637427234379	-0.0408502512261749	75.0155144041988	-0.000221213226369896	9.00683471206787	5.90794778449325	0	0	0	0	0
80.0861489133614	-2.10349963777469	-0.0420314238048728	80.0165486794863	-0.000251626248516428	9.14195439345919	5.84970632539616	0	0	0	0	0
85.0826253198209	-2.31695564951096	-0.0433939973782331	85.0175829545429	-0.000293849726031414	9.27226881475544	5.89099637141481	0	0	0	0	0
90.0787820779243	-2.53776379003897	-0.0449778018448271	90.0186172292057	-0.000340156900721953	9.39827168840897	6.07170711298848	0	0	0	0	0
95.0745570308627	-2.76704449977828	-0.0467820504162969	95.0196515032783	-0.000381712932898545	9.52066329565496	6.16824950358074	0	0	0	0	0
100.069887827386	-3.00580352438914	-0.048761695464245	100.020685777023	-0.000412026877292453	9.64007881860543	7.71294866386246	0	0	0	0	0
105.064721977325	-3.2547345107075	-0.050835790552007	105.021720048782	-0.000417981047541302	9.75684706825647	12.4791329429952	0	0	0	0	0
110.059026101017	-3.51408177476169	-0.0529292723725392	110.022754323573	-0.00041941242626377	9.87083121132346	12.3594797954301	0	0	0	0	0
115.052776078526	-3.78388883093146	-0.055022108573665	115.023788598013	-0.000417572939075627	9.98166899908311	12.1138073610706	0	0	0	0	0
120.045952464167	-4.06411090781856	-0.057098225949966	120.024822872436	-0.000412622462842947	10.0888612542666	11.8073008023234	0	0	0	0	0
125.038540650849	-4.35462477174502	-0.0591422420451448	125.025857146939	-0.000404744672607193	10.191792754702	11.6306676493394	0	0	0	0	0
130.030531050411	-4.65523636722693	-0.0611419016501774	130.026891421435	-0.000394846060931259	10.2898375976595	11.4288840022075	0	0	0	0	0
135.02191888027	-4.96569326125152	-0.0630843446938911	135.027925695973	-0.00038189703943718	10.3824227277317	11.2471510865148	0	0	0	0	0
140.012705071214	-5.28567715655006	-0.0649582426987606	140.028959970579	-0.000367450969414266	10.4689893548968	11.0735094240454	0	0	0	0	0
145.002894964395	-5.61483044910426	-0.0667586901606621	145.029994245241	-0.000352548713472008	10.5489507168147	10.9100140960567	0	0	0	0	0
149.992496753397	-5.95278250545009	-0.0684850033976505	150.031028519931	-0.000337819902621872	10.6216699118996	10.7550984064567	0	0	0	0	0
154.981520369501	-6.2991659255903	-0.0701388577187382	155.032062794631	-0.000323582522853911	10.6864585265715	10.6082829724378	0	0	0	0	0
159.969976789156	-6.65362485908557	-0.0717229911039288	160.033097069332	-0.000309944246925969	10.7425958241011	10.4688128804927	0	0	0	0	0
164.957877665754	-7.01581798881207	-0.073240339462904	165.034131344028	-0.00029687824014522	10.7893254094583	10.3353955718393	0	0	0	0	0
169.945235203227	-7.3854180547723	-0.0746934965251324	170.035165618715	-0.000284275190116438	10.8258519097511	10.2065505809426	0	0	0	0	0
174.932062201765	-7.76210926909314	-0.0760843952906973	175.036199893394	-0.000271980738600848	10.8513580811348	10.0812331836508	0	0	0	0	0
179.918372219564	-8.14558356720737	-0.077414150588767	180.037234168064	-0.000259822747198658	10.8650379438473	9.9588487675429	0	0	0	0	0
184.904179804223	-8.53553637128276	-0.0786830112336821	185.038268442727	-0.000247626804075807	10.8661271003753	9.83903742679626	0	0	0	0	0
189.889500758739	-8.93166230879319	-0.0798903888013862	190.039302717383	-0.000235233359406442	10.8539186984082	9.72081445851471	0	0	0	0	0
194.874352410293	-9.33365123625697	-0.0810349398271164	195.040336992035	-0.000222500174709545	10.8277855154272	9.60383398599484	0	0	0	0	0
199.858753865945	-9.74118468917981	-0.0821146509524955	200.041371266684	-0.000209301253176484	10.787221228322	9.4894425644495	0	0	0	0	0
204.842726246608	-10.1539327831448	-0.0831269422588343	205.04240554133	-0.000195536367381579	10.7318816733648	9.37806880223486	0	0	0	0	0
209.826292881008	-10.5715517094792	-0.0840687943500714	210.043439815976	-0.000181130095663718	10.6616022093221	9.26776692241054	0	0	0	0	0
214.809479451769	-10.9936818392341	-0.0849368627592669	215.044474090623	-0.00016602803239253	10.5764001857534	9.15516880120889	0	0	0	0	0
219.792314093928	-11.4199463601327	-0.0857275797207947	220.04550836527	-0.000150194812508551	10.4764706171639	9.03742638103448	0	0	0	0	0
224.774827446955	-11.8499503755408	-0.0864372342232375	225.046542639919	-0.000133616514970151	10.3621773469642	8.91433419430709	0	0	0	0	0
229.757052664794	-12.2832803664908	-0.0870620251794128	230.047576914565	-0.000116185429886756	10.2340601309372	8.78643948429722	0	0	0	0	0
234.739025450123	-12.7195032261529	-0.0875979866052323	235.048611189196	-9.80186685703457e-05	10.0928842829573	8.65180451640239	0	0	0	0	0
239.720785049769	-13.1581542393805	-0.0880336841259869	240.049645463837	-7.60380042580155e-05	9.93952154736848	8.50595306671097	0	0	0	0	0
244.702377491745	-13.598699740692	-0.0883581250843198	245.050679738514	-5.36047759815179e-05	9.77478221174662	8.34425900064204	0	0	0	0	0
249.683850919705	-14.040589099057	-0.0885746405107673	250.0517140132	-3.29457205903016e-05	9.59948504342406	8.16506982048406	0	0	0	0	0
254.665250425286	-14.4833110795403	-0.0886947025702129	255.05274828788	-1.50806908443708e-05	9.41463179320494	7.96830900654417	0	0	0	0	0
259.646615473053	-14.9264206304778	-0.0887326615102749	260.053782562552	-1.43903022947538e-07	9.22155179978887	7.74974846135291	0	0	0	0	0
264.62797935167	-15.3695433257821	-0.088702009442883	265.054816837218	1.23394034464515e-05	9.02192521364676	7.50653841277134	0	0	0	0	0
269.609370043542	-15.812364480032	-0.0886129273636735	270.055851111882	2.3214010823274e-05	8.81767587561106	7.25005385079205	0	0	0	0	0
274.590811978273	-16.2546087848774	-0.0884708829599067	275.05688538655	3.35175223196287e-05	8.61082970845029	7.00800745412103	0	0	0	0	0
279.572328249098	-16.696014925173	-0.0882759675899812	280.057919661225	4.43646387670587e-05	8.40339586609455	6.81061958596592	0	0	0	0	0
284.553942988992	-17.1363083116097	-0.0880227990303813	285.058953935911	5.68294873123238e-05	8.19730965722584	6.67327825772607	0	0	0	0	0
289.535683622018	-17.5751748813585	-0.0877010664964775	290.059988210611	7.18005172131032e-05	7.99438919553837	6.59503817153797	0	0	0	0	0
294.51758268904	-18.0122391348566	-0.0872966314876714	295.061022485326	8.99213323300666e-05	7.79623148261874	6.57478499551001	0	0	0	0	0
299.49967907628	-18.4470481455418	-0.0867927786927099	300.062056760057	0.000111581749166177	7.60406438059925	6.61592277453253	0	0	0	0	0
304.482018586112	-18.879062058708	-0.0861716038987459	305.063091034801	0.000136860074144228	7.41856861758295	6.71300040361439	0	0	0	0	0
309.464653752488	-19.3076521007892	-0.0854156211840929	310.064125309552	0.000165509443665994	7.2399715450845	6.84978816926655	0	0	0	0	0
314.447642880685	-19.7321064002382	-0.0845092225242967	315.065159584299	0.000197001598901582	7.06826416651491	7.01034687473444	0	0	0	0	0
319.431048451761	-20.1516422708493	-0.0834397623097062	320.06619385906	0.000230645998960532	6.9034513919006	7.18428117410707	0	0	0	0	0
324.414935114956	-20.5654228072409	-0.0821982834350712	325.067228133813	0.000266198567378101	6.74576289170184	7.36391542990602	0	0	0	0	0
329.399367179448	-20.972579576447	-0.0807832550469133	330.068262408283	0.000299828417470159	6.59573092378707	7.53403049283449	0	0	0	0	0
334.384402183291	-21.3722853239455	-0.0792131044420519	335.069296682623	0.000328089589998796	6.45409089090174	7.67533369281469	0	0	0	0	0
339.370084271862	-21.7638359926028	-0.0775166607336615	340.070330956952	0.000350252162385815	6.32173317677167	7.77496802981319	0	0	0	0	0
344.356442951986	-22.1466730531453	-0.0757221472960726	345.071365231351	0.000367274667328459	6.19973490199927	7.82525960254575	0	0	0	0	0
349.34349541845	-22.5203630494066	-0.073850873372715	350.072399505868	0.000380918776568186	6.08924741386495	7.83232526672492	0	0	0	0	0
354.331250460463	-22.8845548121688	-0.0719142091608282	355.07343378054	0.000393491811532318	5.99126944165095	7.85385190496041	0	0	0	0	0
359.319712805642	-23.2389259417361	-0.0699125539383433	360.074468055317	0.000406900096269426	5.90642648261461	7.88494408699187	0	0	0	0	0
364.308886649428	-23.5831340242875	-0.0678379008988128	365.075502330204	0.000422741029724867	5.83485422551729	7.8947044785681	0	0	0	0	0
369.298777967527	-23.9167786048529	-0.0656754252929288	370.076536605153	0.000442061150852219	5.77622999504235	7.89001990655719	0	0	0	0	0
374.28939564554	-24.2393747660959	-0.0634066958673142	375.077570880125	0.000465269665048861	5.72989289048375	7.87182021247372	0	0	0	0	0
379.280751253704	-24.5503427165424	-0.0610126695066307	380.078605155079	0.000492197137538715	5.69498517573409	7.84066191734582	0	0	0	0	0
384.272857759924	-24.8490114978191	-0.0584763380775848	385.079639429977	0.000522197537204222	5.67056698981732	7.79733713257776	0	0	0	0	0
389.265727499437	-25.134634469756	-0.0557847647288237	390.080673704787	0.000554274476447619	5.65568187991109	7.74343675051665	0	0	0	0	0
394.259369774906	-25.4064131652765	-0.0529303471287071	395.081707979518	0.000587709983711786	5.6493945185778	7.68111760447488	0	0	0	0	0
399.253788145836	-25.6635318363258	-0.049916271826346	400.08274225353	0.000617756907076364	5.65090241704121	7.61267341334748	0	0	0	0	0
404.248975349465	-25.9052506343675	-0.0467700295240692	405.083776527375	0.000640336525711242	5.65968537391051	7.54012518268908	0	0	0	0	0
409.244909710802	-26.130997735059	-0.0435274524249207	410.084810801438	0.00065619122523451	5.67562778584143	7.46494992050048	0	0	0	0	0
414.241557377293	-26.3403611492203	-0.0402147535233655	415.085845075892	0.000668381247060969	5.69893846390536	7.38804746925506	0	0	0	0	0
419.238876962516	-26.5330190390277	-0.036841278983712	420.086879350751	0.000680556497983455	5.72980579654511	7.30986762323659	0	0	0	0	0
424.236823731682	-26.7086528143467	-0.0333993783583949	425.087913625922	0.000695837123970177	5.76809024950942	7.2306037434699	0	0	0	0	0
429.235351981868	-26.8668715677664	-0.02986870453511	430.088947901256	0.000716159258265967	5.81312526964087	7.15038416681283	0	0	0	0	0
434.234415291658	-27.0071646318563	-0.0262228780395932	435.089982176575	0.000741970311962324	5.86365048086479	7.06942646169935	0	0	0	0	0
439.233964961404	-27.1288899207306	-0.0224368776573687	440.091016451744	0.000772360788567172	5.91792594722827	6.98822140364392	0	0	0	0	0
444.233947365875	-27.2312977775019	-0.0184938865162105	445.09205072661	0.000804768847811264	5.97406024138534	6.90766932022291	0	0	0	0	0
449.234301159633	-27.3135813995976	-0.014386790181738	450.093085001123	0.000837795730988189	6.03043157084201	6.8289519965141	0	0	0	0	0
454.234955433328	-27.374922169408	-0.0101191431264889	455.094119275644	0.000869828541464031	6.08581371756399	6.75331514379263	0	0	0	0	0
459.235828705396	-27.414541323636	-0.00570357914074417	460.095153548394	0.000896326382449098	6.13934934848458	6.68188175930167	0	0	0	0	0
464.236828916634	-27.4318130111523	-0.0011950198832891	465.096187820394	0.000906402690192431	6.19044769890005	6.61549152314335	0	0	0	0	0
469.237856080286	-27.4264742538789	0.00332615953463449	470.09722209313	0.00090118691666902	6.23884309692555	6.55451687509199	0	0	0	0	0
474.23880864683	-27.3986260290338	0.00779982716168833	475.098256367061	0.000887469500620577	6.2846081690746	6.49893351151914	0	0	0	0	0
479.239588492894	-27.3485823911263	0.0122017111988152	480.099290642012	0.000872674432387766	6.32800711341827	6.44856082844962	0	0	0	0	0
484.240102146976	-27.276694958544	0.0165394984795146	485.100324917514	0.000862065594829382	6.36928893191977	6.40340474574959	0	0	0	0	0
489.240259011621	-27.1832250424125	0.020839052615585	490.101359193047	0.000857581598842858	6.4085359911273	6.36384416806096	0	0	0	0	0
494.239968644758	-27.0682943232882	0.0251277903501114	495.102393468177	0.000857887623763888	6.44558486718052	6.33043520969348	0	0	0	0	0
499.239139185018	-26.9319149887307	0.0294201405742334	500.10342774253	0.00085741368871141	6.47997036434119	6.30374123835345	0	0	0	0	0
504.237678095128	-26.7740728807906	0.0337172199013263	505.104462020692	0.000866223577898595	6.51086953440656	6.28424970633668	0	0	0	0	0
509.235490573318	-26.5946975998648	0.0380256320841708	510.105496288352	0.000856784779145788	6.53713685328799	6.27247841588639	0	0	0	0	0
514.23249754788	-26.394124773363	0.042157503076171	515.106530556173	0.000793468593891939	6.55808200340309	6.26860640330303	0	0	0	0	0
519.228674738835	-26.173833577463	0.0458911432935867	520.107564828787	0.000697609297018503	6.57420553743367	6.27178874403141	0	0	0	0	0
524.224052356141	-25.9360853946511	0.0491465760360938	525.108599105158	0.000603232732857796	6.58668593759414	6.28051965848981	0	0	0	0	0
529.218684706822	-25.6831532694718	0.0519911541217692	530.109633382891	0.000534426458367575	6.59649478212502	6.2934249475559	0	0	0	0	0
534.212616485805	-25.4167412667695	0.054571221337513	535.110667660265	0.000498244287066468	6.60383961806934	6.30980939955692	0	0	0	0	0
539.205863962003	-25.1377952931059	0.0570315896584972	540.111701936434	0.000484787934155357	6.60821957078282	6.32977515889769	0	0	0	0	0
544.198415941477	-24.8466660378719	0.0594648604706856	545.112736214573	0.000502657998066876	6.60819208170203	6.35401504286827	0	0	0	0	0
549.190246853001	-24.5434232683033	0.0618331060682894	550.11377047949	0.000434535719926722	6.60162687196274	6.38345789576596	0	0	0	0	0
554.18140920135	-24.2293620837221	0.0637690454275932	555.11480475595	0.000338780911050906	6.58787008017314	6.41773690806392	0	0	0	0	0
559.172020779243	-23.9066627751343	0.0653289294346371	560.115839032879	0.000287014657589896	6.56788668675449	6.45615421377698	0	0	0	0	0
564.162158057809	-23.5767084676367	0.0666999941230169	565.116873308152	0.000263089583045945	6.54265058402262	6.49910530288236	0	0	0	0	0
569.151858882559	-23.2402173909919	0.0679476716789448	570.117907582207	0.000236914610727777	6.51213220578996	6.54714974775959	0	0	0	0	0
574.14116500863	-22.8979224261643	0.069007422246421	575.118941855782	0.000186837388046674	6.47493171634896	6.6000601611517	0	0	0	0	0
579.130158067415	-22.5510925770656	0.0697399828602365	580.119976129706	0.000105560889639886	6.43063129003099	6.65719774281525	0	0	0	0	0
584.118974256886	-22.2017264539443	0.0700032396289336	585.121010404183	-8.38242486597997e-07	6.38127326605832	6.71870597581228	0	0	0	0	0
589.107796211809	-21.8524427491782	0.0696932173371591	590.122044678975	-0.000120756339542433	6.33026964883075	6.78336585984672	0	0	0	0	0
594.096836445229	-21.5062933198614	0.0687283887866637	595.123078955639	-0.000271980316182225	6.27918031957229	6.84729881499891	0	0	0	0	0
599.08634042087	-21.1669005783289	0.0669734737007959	600.124113228302	-0.000429880986748123	6.22994228268379	6.90659641036398	0	0	0	0	0
604.076550870474	-20.8380678043535	0.0645293042301452	605.125147500082	-0.000544725245793029	6.18767913506464	6.96114908274019	0	0	0	0	0
609.067636751623	-20.5228108136675	0.0615441082340933	610.126181775682	-0.00064587686668593	6.15726469753095	7.00918868987867	0	0	0	0	0
614.059724782102	-20.223855393171	0.0579700424326423	615.127216057441	-0.000780736899329797	6.13992739670482	7.04366713436667	0	0	0	0	0
619.052960706331	-19.9447536831801	0.0535257253968579	620.128250347158	-0.00100457497460061	6.13925909491781	7.05570444335427	0	0	0	0	0
620.051762313466	-19.8917535576012	0.052492928205226	621.128457202092	-0.00106044028530992	6.14169143541075	7.05475785652806	0	0	0	0	0
621.050619613752	-19.8398137166654	0.051401880503455	622.128664057026	-0.00112104264757627	6.14506139711595	7.052584206872	0	0	0	0	0
622.049534564857	-19.7889948022413	0.0502477551942112	623.128870911959	-0.00118656030854588	6.14938355090408	7.0491507453964	0	0	0	0	0
623.048509164249	-19.7393623744637	0.0490255529177701	624.129077766893	-0.00125716015148826	6.15466779742059	7.04442501664885	0	0	0	0	0
624.047545421498	-19.6909870765629	0.0477301220409067	625.129284621827	-0.00133297918056264	6.16092585506849	7.03838180592005	0	0	0	0	0
625.046645325046	-19.6439447764046	0.0463561795515938	626.129491476761	-0.00141414365708104	6.16818113557241	7.03099506655191	0	0	0	0	0
626.045810803501	-19.5983166915715	0.0448983283946436	627.129698331695	-0.00150075486547585	6.17646688858162	7.02224114696265	0	0	0	0	0
627.045043681039	-19.5541894946228	0.0433510752510173	628.129905186629	-0.0015929051802117	6.18582669971405	7.01209497042842	0	0	0	0	0
628.044345626764	-19.5116554014547	0.0417088537047453	629.130112041564	-0.00169064452251909	6.19631472878393	7.00053032065607	0	0	0	0	0
629.0437180977	-19.4708122410837	0.0399660167346788	630.130318896498	-0.00179409920584625	6.20799012310438	6.98751893005465	0	0	0	0	0
630.04316227546	-19.431763513282	0.0381169473098891	631.130525751432	-0.00190302545922677	6.22091615235192	6.97302967765412	0	0	0	0	0
631.042678995313	-19.3946184098732	0.0361557225035331	632.130732606367	-0.00201845073554869	6.23515011825289	6.95702941879008	0	0	0	0	0
632.042268677283	-19.3594920655024	0.0340769166360087	633.130939461301	-0.00213800740090301	6.25072415105464	6.93948252385881	0	0	0	0	0
633.04193121236	-19.3265047291542	0.0318748995284674	634.131146316236	-0.00226492208266692	6.26765881988692	6.92035557804798	0	0	0	0	0
634.041665915486	-19.2957830293081	0.029543450875134	635.13135317117	-0.00239677810321268	6.28593063929141	6.89961405783454	0	0	0	0	0
635.041471397605	-19.2674591259429	0.0270772520280405	636.131560026105	-0.0025343848862265	6.30550748997573	6.87723536211568	0	0	0	0	0
636.041345461887	-19.2416707211571	0.0244707591319708	637.13176688104	-0.00267731288178144	6.32636172307252	6.85319970402607	0	0	0	0	0
637.041284988789	-19.2185609014719	0.0217187265542709	638.131973735975	-0.00282540974693447	6.34847165065388	6.82751127658443	0	0	0	0	0
638.041285814474	-19.1982779322408	0.01881605912567	639.13218059091	-0.0029785414078748	6.37183650387926	6.80018541125807	0	0	0	0	0
639.041342604555	-19.1809750541989	0.015757968418004	640.132387445844	-0.00313615878097299	6.39647122939235	6.77127331958629	0	0	0	0	0
640.041448722359	-19.166810230441	0.0125395884290591	641.132594300779	-0.00329922878632588	6.42239963737769	6.74085719017309	0	0	0	0	0
